# SOURCE  = 'Quimby et al. 2018' /                                                
# OBJECT  = 'PTF12dam'           /                                                
# Z       =             0.107500 / wavelengths divided by (1 + z)                 
# NORM    =          1.30094E-12 / fluxes divided by norm                         
# CLIPPED =                    1 / galaxy emission lines removed                  
# SMOOTHED=                    1 / spectrum has been smoothed                     
# COLUMN01= 'Wavelength (Angstrom)' /                                             
# COLUMN02= 'Flux Density (erg/s/cm2/A)' /                                        
# COLUMN03= 'Flux Density Uncertainty (erg/s/cm2/A)' /                            
# END                                                                             
# 
# 
# 
# 
# 
# 
# 
# 
# 
# 
   1903.8146716      0.8376650      0.0194341
   1905.7195391      0.8262297      0.0192031
   1907.6244067      0.8147895      0.0189720
   1909.5294095      0.8033314      0.0187405
   1911.4453629      0.7918620      0.0185088
   1913.3502304      0.7803804      0.0182769
   1915.2661838      0.7691897      0.0180498
   1917.1821371      0.7615436      0.0178825
   1919.0980905      0.7538899      0.0177149
   1921.0141790      0.7462287      0.0175472
   1922.9412183      0.7385643      0.0173795
   1924.8682574      0.7308879      0.0172114
   1926.7842109      0.7232572      0.0170444
   1928.7112500      0.7192522      0.0169597
   1930.6382891      0.7152455      0.0168749
   1932.5764141      0.7112324      0.0167900
   1934.5034534      0.7072156      0.0167050
   1936.4415784      0.7031969      0.0166199
   1938.3797034      0.6991717      0.0165348
   1940.3178284      0.6929513      0.0164272
   1942.2559534      0.6865896      0.0163181
   1944.1940784      0.6802248      0.0162089
   1946.1432891      0.6738507      0.0160997
   1948.0925000      0.6674700      0.0159903
   1950.0417109      0.6610826      0.0158807
   1951.9909216      0.6586657      0.0158020
   1953.9401324      0.6567299      0.0157269
   1955.8893433      0.6547921      0.0156517
   1957.8496399      0.6528525      0.0155764
   1959.8098014      0.6509119      0.0155011
   1961.7700980      0.6489683      0.0154257
   1963.7303946      0.6518382      0.0154685
   1965.6906912      0.6555207      0.0155312
   1967.6620736      0.6592045      0.0155940
   1969.6222351      0.6628943      0.0156568
   1971.5936176      0.6665874      0.0157197
   1973.5650000      0.6702825      0.0157826
   1975.5474683      0.6769627      0.0159177
   1977.5187155      0.6842088      0.0160664
   1979.5011838      0.6914623      0.0162153
   1981.4725662      0.6987233      0.0163643
   1983.4550345      0.7059878      0.0165134
   1985.4373676      0.7132631      0.0166628
   1987.4309216      0.7113930      0.0166400
   1989.4133899      0.7078945      0.0165866
   1991.4068088      0.7043908      0.0165332
   1993.3892770      0.7008836      0.0164797
   1995.3826960      0.6973727      0.0164261
   1997.3873359      0.6938605      0.0163725
   1999.3808899      0.6986573      0.0163825
   2001.3853946      0.7046882      0.0164020
   2003.3789486      0.7107252      0.0164214
   2005.3834534      0.7167647      0.0164409
   2007.3880933      0.7228135      0.0164604
   2009.4036838      0.7288688      0.0164799
   2011.4083236      0.7328758      0.0165272
   2013.4239141      0.7366973      0.0165773
   2015.4285540      0.7405226      0.0166274
   2017.4441446      0.7443518      0.0166775
   2019.4708210      0.7481846      0.0167277
   2021.4865466      0.7520195      0.0167779
   2023.5021371      0.7540647      0.0167898
   2025.5289486      0.7560617      0.0168007
   2027.5556250      0.7580599      0.0168115
   2029.5823014      0.7600610      0.0168224
   2031.6091129      0.7620640      0.0168333
   2033.6468750      0.7641736      0.0168452
   2035.6735514      0.7680156      0.0168731
   2037.7114486      0.7718636      0.0169011
   2039.7492109      0.7757156      0.0169290
   2041.7980588      0.7795712      0.0169571
   2043.8358210      0.7834289      0.0169851
   2045.8737183      0.7872417      0.0170187
   2047.9225662      0.7908190      0.0170785
   2049.9714141      0.7943977      0.0171383
   2052.0202621      0.7979824      0.0171982
   2054.0691101      0.8015704      0.0172581
   2056.1291790      0.8051618      0.0173182
   2058.1891129      0.8087422      0.0173916
   2060.2379609      0.8122905      0.0174952
   2062.2978946      0.8158442      0.0175988
   2064.3689141      0.8194014      0.0177026
   2066.4288480      0.8229604      0.0178065
   2068.4998676      0.8265249      0.0179105
   2070.5598014      0.8333070      0.0180399
   2072.6308210      0.8439204      0.0181996
   2074.7129264      0.8545379      0.0183593
   2076.7839460      0.8651721      0.0185193
   2078.8549655      0.8758174      0.0186794
   2080.9370710      0.8864730      0.0188397
   2083.0191764      0.8940896      0.0189662
   2085.1012817      0.8998879      0.0190726
   2087.1833871      0.9056922      0.0191791
   2089.2765784      0.9115025      0.0192856
   2091.3697696      0.9173151      0.0193923
   2093.4518750      0.9231371      0.0194990
   2095.5561520      0.9244251      0.0195338
   2097.6493433      0.9246633      0.0195519
   2099.7425345      0.9249017      0.0195700
   2101.8466764      0.9251405      0.0195881
   2103.9509534      0.9253795      0.0196063
   2106.0441446      0.9256067      0.0196236
   2108.1595074      0.9249775      0.0195797
   2110.2637845      0.9243478      0.0195358
   2112.3790121      0.9237175      0.0194919
   2114.4832891      0.9230869      0.0194479
   2116.5986520      0.9224553      0.0194039
   2118.7140149      0.9207810      0.0193436
   2120.8403284      0.9157159      0.0192307
   2122.9556912      0.9106485      0.0191177
   2125.0821399      0.9055733      0.0190046
   2127.2084534      0.9004930      0.0188913
   2129.3349020      0.8954078      0.0187779
   2131.4612155      0.8907115      0.0186716
   2133.5987500      0.8864484      0.0185732
   2135.7251986      0.8821810      0.0184747
   2137.8625980      0.8779097      0.0183760
   2140.0001324      0.8736361      0.0182773
   2142.1375317      0.8693557      0.0181785
   2144.2861520      0.8649604      0.0180770
   2146.4235514      0.8605211      0.0179745
   2148.5721716      0.8560749      0.0178718
   2150.7206567      0.8516244      0.0177690
   2152.8803629      0.8471692      0.0176661
   2155.0288480      0.8427098      0.0175632
   2157.1774683      0.8367863      0.0174496
   2159.3370391      0.8308524      0.0173358
   2161.4966101      0.8249128      0.0172219
   2163.6563162      0.8189707      0.0171079
   2165.8269730      0.8130189      0.0169938
   2167.9866790      0.8071082      0.0168817
   2170.1573359      0.8013083      0.0167748
   2172.3279926      0.7955055      0.0166678
   2174.4987845      0.7896940      0.0165606
   2176.6805270      0.7838763      0.0164533
   2178.8511838      0.7780532      0.0163460
   2181.0329264      0.7752775      0.0163022
   2183.2148040      0.7745554      0.0163012
   2185.3965466      0.7738326      0.0163002
   2187.5782891      0.7731094      0.0162992
   2189.7711176      0.7723851      0.0162983
   2191.9639460      0.7716601      0.0162973
   2194.1569095      0.7801442      0.0164548
   2196.3497379      0.7894147      0.0166259
   2198.5425662      0.7986893      0.0167971
   2200.7353946      0.8079782      0.0169685
   2202.9393088      0.8172768      0.0171401
   2205.1432230      0.8271302      0.0173248
   2207.3471371      0.8385268      0.0175462
   2209.5621371      0.8499347      0.0177677
   2211.7660514      0.8613544      0.0179895
   2213.9810514      0.8727797      0.0182114
   2216.1960514      0.8842218      0.0184337
   2218.4110514      0.8967838      0.0186991
   2220.6260514      0.9100183      0.0189904
   2222.8521371      0.9232592      0.0192819
   2225.0671371      0.9365203      0.0195737
   2227.2932230      0.9497951      0.0198659
   2229.5193088      0.9630839      0.0201584
   2231.7564804      0.9777843      0.0204755
   2233.9825662      0.9924990      0.0207929
   2236.2197379      1.0072279      0.0211107
   2238.4569095      1.0219719      0.0214287
   2240.6939460      1.0367233      0.0217470
   2242.9311176      1.0521795      0.0220580
   2245.1793750      1.0686598      0.0223580
   2247.4276324      1.0851471      0.0226582
   2249.6758899      1.1016605      0.0229588
   2251.9240121      1.1181906      0.0232597
   2254.1722696      1.1347367      0.0235609
   2256.4316129      1.1488296      0.0238443
   2258.6797351      1.1624020      0.0241240
   2260.9390784      1.1759874      0.0244041
   2263.2095074      1.1895866      0.0246845
   2265.4687155      1.2031916      0.0249649
   2267.7280588      1.2155606      0.0252158
   2269.9983527      1.2242156      0.0253780
   2272.2687817      1.2328743      0.0255403
   2274.5392109      1.2415473      0.0257028
   2276.8207258      1.2502286      0.0258655
   2279.0911548      1.2589184      0.0260284
   2281.3723992      1.2647882      0.0261734
   2283.6539141      1.2694685      0.0263110
   2285.9354290      1.2741568      0.0264487
   2288.2280298      1.2788494      0.0265866
   2290.5092742      1.2835438      0.0267245
   2292.8018750      1.2883502      0.0268636
   2295.0944758      1.2936653      0.0270070
   2297.3868061      1.2989848      0.0271505
   2299.6904926      1.3043075      0.0272941
   2301.9941790      1.3096383      0.0274380
   2304.2867798      1.3149741      0.0275819
   2306.6012817      1.3269947      0.0278222
   2308.9049683      1.3424963      0.0281125
   2311.2086548      1.3580215      0.0284033
   2313.5231567      1.3735613      0.0286943
   2315.8379290      1.3891174      0.0289857
   2318.1524311      1.4007374      0.0291998
   2320.4672034      1.3910635      0.0289962
   2322.7930615      1.3813792      0.0287923
   2325.1186492      1.3716860      0.0285883
   2327.4334216      1.3619882      0.0283841
   2329.7700952      1.3522747      0.0281797
   2332.0959534      1.3488451      0.0280851
   2334.4328973      1.3484206      0.0280431
   2336.7584851      1.3479955      0.0280011
   2339.0954290      1.3475699      0.0279590
   2341.4431885      1.3471440      0.0279169
   2343.7801324      1.3459239      0.0278719
   2346.1278918      1.3418504      0.0278165
   2348.4759216      1.3377727      0.0277610
   2350.8236811      1.3336914      0.0277055
   2353.1717109      1.3296078      0.0276500
   2355.5194702      1.3255180      0.0275944
   2357.8785859      1.3209844      0.0274638
   2360.2374311      1.3163202      0.0273115
   2362.5965466      1.3116539      0.0271591
   2364.9553918      1.3069805      0.0270064
   2367.3255933      1.3023024      0.0268537
   2369.6955242      1.2944657      0.0266696
   2372.0657258      1.2808249      0.0264284
   2374.4356567      1.2671607      0.0261868
   2376.8058582      1.2534841      0.0259449
   2379.1868750      1.2397997      0.0257029
   2381.5678918      1.2260951      0.0254606
   2383.9491790      1.2146348      0.0252457
   2386.3301960      1.2032965      0.0250323
   2388.7225689      1.1919481      0.0248187
   2391.1035859      1.1805943      0.0246049
   2393.4956885      1.1692226      0.0243909
   2395.8880615      1.1572243      0.0241573
   2398.2912500      1.1447301      0.0239084
   2400.6833527      1.1322162      0.0236590
   2403.0868115      1.1196910      0.0234094
   2405.4900000      1.1071531      0.0231596
   2407.8931885      1.0953230      0.0229249
   2410.3077332      1.0865401      0.0227557
   2412.7109216      1.0777484      0.0225863
   2415.1251960      1.0689477      0.0224167
   2417.5394702      1.0601432      0.0222470
   2419.9651008      1.0513248      0.0220771
   2422.3793750      1.0357873      0.0217582
   2424.8047351      1.0189514      0.0214106
   2427.2300952      1.0020890      0.0210625
   2429.6557258      0.9852116      0.0207140
   2432.0810859      0.9683154      0.0203651
   2434.5175317      0.9520651      0.0200358
   2436.9539777      0.9364497      0.0197255
   2439.3906939      0.9208083      0.0194147
   2441.8271399      0.9051530      0.0191037
   2444.2746716      0.8894891      0.0187925
   2446.7111176      0.8772733      0.0185476
   2449.1586492      0.8794948      0.0185807
   2451.6061811      0.8817187      0.0186139
   2454.0650689      0.8839436      0.0186470
   2456.5126008      0.8861719      0.0186803
   2458.9712183      0.8884025      0.0187135
   2461.4298359      0.8952373      0.0188687
   2463.8884534      0.9025889      0.0190375
   2466.3581567      0.9099519      0.0192066
   2468.8278601      0.9173229      0.0193759
   2471.2975635      0.9246963      0.0195452
   2473.7672668      0.9401242      0.0198527
   2476.2369702      0.9604871      0.0202447
   2478.7180298      0.9808724      0.0206371
   2481.1988189      1.0012776      0.0210300
   2483.6796082      1.0216939      0.0214230
   2486.1603973      1.0432960      0.0218549
   2488.6411865      1.0669647      0.0223547
   2491.1330615      1.0906413      0.0228547
   2493.6249365      1.1143565      0.0233555
   2496.1168115      1.1380973      0.0238569
   2498.6197723      1.1613213      0.0243447
   2501.1116473      1.1806961      0.0247319
   2503.6146082      1.2001003      0.0251196
   2506.1175689      1.2195233      0.0255078
   2508.6205298      1.2389652      0.0258964
   2511.1343061      1.2584176      0.0262851
   2513.6483527      1.2782075      0.0266639
   2516.1623992      1.2980516      0.0270419
   2518.6764460      1.3179065      0.0274202
   2521.1904926      1.3377912      0.0277989
   2523.7156250      1.3576952      0.0281781
   2526.2407574      1.3707681      0.0284357
   2528.7658899      1.3808154      0.0286396
   2531.2910223      1.3908670      0.0288436
   2533.8269702      1.4009347      0.0290479
   2536.3631885      1.4110121      0.0292524
   2538.8994067      1.4159071      0.0293694
   2541.4356250      1.4157556      0.0294012
   2543.9718433      1.4156039      0.0294330
   2546.5191473      1.4154521      0.0294649
   2549.0661811      1.4153003      0.0294967
   2551.6134851      1.4151043      0.0295082
   2554.1718750      1.4148227      0.0294798
   2556.7191790      1.4145409      0.0294514
   2559.2775689      1.4142590      0.0294229
   2561.8356885      1.4139766      0.0293945
   2564.4051641      1.4124451      0.0293407
   2566.9635540      1.4054968      0.0291773
   2569.5330298      1.3985448      0.0290138
   2572.1022351      1.3915825      0.0288501
   2574.6717109      1.3846138      0.0286862
   2577.2522723      1.3778888      0.0285283
   2579.8214777      1.3752441      0.0284709
   2582.4020391      1.3725955      0.0284134
   2584.9936865      1.3699446      0.0283558
   2587.5739777      1.3672920      0.0282982
   2590.1656250      1.3646356      0.0282405
   2592.7461865      1.3590268      0.0281401
   2595.3486492      1.3532320      0.0280370
   2597.9402966      1.3474348      0.0279338
   2600.5430298      1.3416278      0.0278304
   2603.1344067      1.3358161      0.0277270
   2605.7371399      1.3350024      0.0277142
   2608.3506885      1.3351007      0.0277179
   2610.9534216      1.3351990      0.0277216
   2613.5669702      1.3352975      0.0277254
   2616.1807891      1.3353961      0.0277291
   2618.7946082      1.3380263      0.0277846
   2621.4192426      1.3414298      0.0278558
   2624.0330615      1.3448364      0.0279272
   2626.6576960      1.3482462      0.0279986
   2629.2936865      1.3516577      0.0280701
   2631.9183210      1.3521051      0.0280801
   2634.5543115      1.3513186      0.0280645
   2637.1789460      1.3505317      0.0280490
   2639.8260223      1.3497435      0.0280334
   2642.4617426      1.3489546      0.0280178
   2645.1088189      1.3479435      0.0279969
   2647.7556250      1.3468175      0.0279732
   2650.4024311      1.3456908      0.0279494
   2653.0495074      1.3445626      0.0279257
   2655.7073992      1.3434331      0.0279019
   2658.3544758      1.3374871      0.0277982
   2661.0123676      1.3287627      0.0276484
   2663.6813452      1.3200302      0.0274985
   2666.3395074      1.3112879      0.0273484
   2669.0084851      1.3025430      0.0271983
   2671.6777332      1.2937787      0.0270357
   2674.3467109      1.2850024      0.0268658
   2677.0267742      1.2762172      0.0266957
   2679.6960223      1.2674285      0.0265255
   2682.3760859      1.2586255      0.0263551
   2685.0672351      1.2486537      0.0261628
   2687.7475689      1.2380183      0.0259582
   2690.4387183      1.2273670      0.0257533
   2693.1298676      1.2167039      0.0255481
   2695.8210168      1.2060312      0.0253428
   2698.5124365      1.1978295      0.0251482
   2701.2146716      1.1908901      0.0249592
   2703.9169067      1.1839402      0.0247699
   2706.6191418      1.1769834      0.0245804
   2709.3216473      1.1700230      0.0243908
   2712.0349683      1.1668446      0.0243090
   2714.7482891      1.1652384      0.0242720
   2717.4616101      1.1636307      0.0242349
   2720.1749311      1.1620222      0.0241979
   2722.8996082      1.1604112      0.0241607
   2725.6240149      1.1611942      0.0241874
   2728.3484216      1.1627001      0.0242332
   2731.0728284      1.1642064      0.0242791
   2733.8083210      1.1657151      0.0243250
   2736.5438135      1.1672252      0.0243710
   2739.2793061      1.1755038      0.0245458
   2742.0150689      1.1850154      0.0247441
   2744.7616473      1.1945363      0.0249425
   2747.5082258      1.2040676      0.0251412
   2750.2548040      1.2136073      0.0253400
   2753.0013824      1.2234541      0.0255477
   2755.7590466      1.2333333      0.0257562
   2758.5167109      1.2432222      0.0259650
   2761.2743750      1.2531149      0.0261738
   2764.0320391      1.2633575      0.0263884
   2766.8007891      1.2789716      0.0266912
   2769.5695391      1.2946007      0.0269942
   2772.3382891      1.3102360      0.0272974
   2775.1070391      1.3258958      0.0276011
   2777.8868750      1.3405441      0.0278870
   2780.6556250      1.3508598      0.0280970
   2783.4354609      1.3611815      0.0283071
   2786.2263824      1.3715183      0.0285174
   2789.0062183      1.3818651      0.0287280
   2791.7971399      1.3898193      0.0289072
   2794.5880615      1.3930483      0.0290246
   2797.3900689      1.3962804      0.0291420
   2800.1807202      1.3995161      0.0292596
   2802.9827277      1.4027551      0.0293773
   2805.7847351      1.4053963      0.0294304
   2808.5978284      1.4074467      0.0294195
   2811.3998359      1.4094992      0.0294085
   2814.2129290      1.4115525      0.0293975
   2817.0260223      1.4136090      0.0293864
   2819.8388452      1.4155854      0.0294056
   2822.6630242      1.4175262      0.0294387
   2825.4872034      1.4194682      0.0294717
   2828.3113824      1.4214129      0.0295048
   2831.1466473      1.4233598      0.0295379
   2833.9705561      1.4209262      0.0294853
   2836.8058210      1.4179159      0.0294213
   2839.6410859      1.4149007      0.0293573
   2842.4874365      1.4118826      0.0292931
   2845.3224311      1.4084922      0.0292214
   2848.1687817      1.4018047      0.0290827
   2851.0151324      1.3951064      0.0289437
   2853.8725689      1.3884017      0.0288045
   2856.7297351      1.3816901      0.0286653
   2859.5760859      1.3709332      0.0284446
   2862.4446082      1.3520534      0.0280606
   2865.3017742      1.3331558      0.0276763
   2868.1702966      1.3142474      0.0272917
   2871.0388189      1.2953123      0.0269066
   2873.9070710      1.2816734      0.0266271
   2876.7866790      1.2718035      0.0264227
   2879.6549311      1.2619298      0.0262183
   2882.5345391      1.2520394      0.0260135
