# SOURCE  = 'Quimby et al. 2018' /                                                
# OBJECT  = 'PTF11rks'           /                                                
# Z       =             0.192400 / wavelengths divided by (1 + z)                 
# NORM    =          5.54793E-14 / fluxes divided by norm                         
# CLIPPED =                    1 / galaxy emission lines removed                  
# SMOOTHED=                    1 / spectrum has been smoothed                     
# COLUMN01= 'Wavelength (Angstrom)' /                                             
# COLUMN02= 'Flux Density (erg/s/cm2/A)' /                                        
# COLUMN03= 'Flux Density Uncertainty (erg/s/cm2/A)' /                            
# END                                                                             
# 
# 
# 
# 
# 
# 
# 
# 
# 
# 
   1903.6188574      0.2298616      0.1862702
   1905.5268139      0.1718295      0.1835387
   1907.4226891      0.1137441      0.1808046
   1909.3305000      0.0555966      0.1780677
   1911.2383109     -0.0025775      0.1753294
   1913.1580574     -0.0608404      0.1725870
   1915.0660139     -0.1191609      0.1698419
   1916.9857603     -0.1383427      0.1682046
   1918.9055069     -0.1569007      0.1665833
   1920.8252534     -0.1754770      0.1649603
   1922.7450000     -0.1940716      0.1633358
   1924.6647466     -0.2126732      0.1617106
   1926.5844931     -0.2313059      0.1600828
   1928.5161752     -0.2065703      0.1587701
   1930.4478574     -0.1764391      0.1574952
   1932.3676040     -0.1462943      0.1562197
   1934.3112218     -0.1161041      0.1549423
   1936.2429040     -0.0858820      0.1536636
   1938.1745861     -0.0556326      0.1523837
   1940.1182040      0.0404432      0.1517893
   1942.0498861      0.1539519      0.1513742
   1943.9935040      0.2675713      0.1509587
   1945.9371218      0.3813014      0.1505429
   1947.8926752      0.4950826      0.1501268
   1949.8362931      0.6090425      0.1497100
   1951.7918466      0.5775205      0.1475981
   1953.7354643      0.4881722      0.1448123
   1955.6910178      0.3986840      0.1420222
   1957.6465713      0.3091024      0.1392291
   1959.6021248      0.2194342      0.1364333
   1961.5696139      0.1296794      0.1336349
   1963.5250218      0.0953614      0.1310214
   1965.4925109      0.0901452      0.1285020
   1967.4600000      0.0849236      0.1259799
   1969.4274891      0.0796996      0.1234568
   1971.3949782      0.0744676      0.1209297
   1973.3623218      0.0692305      0.1184002
   1975.3417466      0.0887510      0.1166148
   1977.3092357      0.1230046      0.1152725
   1979.2886603      0.1573113      0.1139282
   1981.2679397      0.1916533      0.1125825
   1983.2473643      0.2260281      0.1112355
   1985.2387248      0.2604206      0.1098878
   1987.2180040      0.2641795      0.1091167
   1989.2093643      0.2513707      0.1086571
   1991.2007248      0.2385487      0.1081972
   1993.1919397      0.2257211      0.1077370
   1995.1833000      0.2128738      0.1072760
   1997.1746603      0.2000134      0.1068147
   1999.1778109      0.1894561      0.1049854
   2001.1691713      0.1798741      0.1025773
   2003.1723218      0.1702768      0.1001654
   2005.1756178      0.1606698      0.0977511
   2007.1789139      0.1510585      0.0953356
   2009.1940000      0.1414319      0.0929164
   2011.1972960      0.1314296      0.0910894
   2013.2123822      0.1213051      0.0894424
   2015.2276139      0.1111762      0.0877947
   2017.2427000      0.1010320      0.0861445
   2019.2577861      0.0908767      0.0844925
   2021.2730178      0.0807119      0.0828390
   2023.3000397      0.0720612      0.0822376
   2025.3152713      0.0636667      0.0818220
   2027.3422931      0.0552638      0.0814059
   2029.3694603      0.0468524      0.0809895
   2031.4084178      0.0384373      0.0805728
   2033.4354397      0.0300096      0.0801556
   2035.4626069      0.0730150      0.0787287
   2037.5015643      0.1188856      0.0772449
   2039.5405218      0.1647758      0.0757606
   2041.5796248      0.2107382      0.0742739
   2043.6185822      0.2567431      0.0727859
   2045.6694752      0.2984593      0.0713349
   2047.7085782      0.2794693      0.0704148
   2049.7594713      0.2604605      0.0694937
   2051.8103643      0.2414327      0.0685718
   2053.8612574      0.2223968      0.0676494
   2055.9122960      0.2033312      0.0667256
   2057.9751248      0.1826784      0.0658607
   2060.0260178      0.1555325      0.0652417
   2062.0888466      0.1283770      0.0646224
   2064.1516752      0.1011773      0.0640020
   2066.2145040      0.0739507      0.0633811
   2068.2774782      0.0466973      0.0627596
   2070.3522426      0.0235984      0.0621383
   2072.4270069      0.0084347      0.0615171
   2074.4898357     -0.0067449      0.0608952
   2076.5646000     -0.0219394      0.0602727
   2078.6393643     -0.0371404      0.0596500
   2080.7260643     -0.0523658      0.0590262
   2082.8008287     -0.0585315      0.0584136
   2084.8875287     -0.0560360      0.0578117
   2086.9742287     -0.0535365      0.0572089
   2089.0609287     -0.0510347      0.0566056
   2091.1476287     -0.0485303      0.0560016
   2093.2343287     -0.0460246      0.0553973
   2095.3329643     -0.0403559      0.0549603
   2097.4316000     -0.0332867      0.0545971
   2099.5302357     -0.0262102      0.0542335
   2101.6288713     -0.0191307      0.0538697
   2103.7275069     -0.0120405      0.0535054
   2105.8261426     -0.0049428      0.0531407
   2107.9367139      0.0012235      0.0528999
   2110.0471397      0.0072842      0.0526733
   2112.1577109      0.0133541      0.0524464
   2114.2682822      0.0194298      0.0522192
   2116.3788534      0.0255123      0.0519918
   2118.5013603      0.0325028      0.0518105
   2120.6117861      0.0466571      0.0519930
   2122.7342931      0.0608241      0.0521756
   2124.8568000      0.0749989      0.0523584
   2126.9912426      0.0891950      0.0525414
   2129.1136040      0.1034047      0.0527246
   2131.2480466      0.1127718      0.0528479
   2133.3705534      0.1132449      0.0528610
   2135.5049960      0.1137183      0.0528741
   2137.6392931      0.1141924      0.0528872
   2139.7856713      0.1146670      0.0529004
   2141.9201139      0.1151418      0.0529136
   2144.0663466      0.1225281      0.0527739
   2146.2007891      0.1343880      0.0525353
   2148.3470218      0.1462599      0.0522965
   2150.5053357      0.1581366      0.0520576
   2152.6517139      0.1700318      0.0518183
   2154.8098822      0.1819392      0.0515788
   2156.9562603      0.1820094      0.0513344
   2159.1144287      0.1804146      0.0510892
   2161.2727426      0.1788173      0.0508437
   2163.4428466      0.1772183      0.0505978
   2165.6011603      0.1756188      0.0503519
   2167.7712643      0.1740166      0.0501056
   2169.9295782      0.1724129      0.0498591
   2172.0996822      0.1708075      0.0496123
   2174.2817218      0.1692007      0.0493653
   2176.4519713      0.1675929      0.0491181
   2178.6220752      0.1659828      0.0488706
   2180.8042603      0.1643711      0.0486228
   2182.9863000      0.1627586      0.0483749
   2185.1683397      0.1611436      0.0481267
   2187.3505248      0.1595271      0.0478781
   2189.5445000      0.1579088      0.0476294
   2191.7265397      0.1562899      0.0473805
   2193.9206603      0.1546685      0.0471312
   2196.1146357      0.1530453      0.0468817
   2198.3205466      0.1514207      0.0466320
   2200.5145218      0.1497952      0.0463821
   2202.7086426      0.1481672      0.0461318
   2204.9145534      0.1465377      0.0458813
   2207.1204643      0.1449074      0.0456307
   2209.3263752      0.1432745      0.0453796
   2211.5322861      0.1416401      0.0451284
   2213.7502782      0.1400040      0.0448769
   2215.9681248      0.1383663      0.0446251
   2218.1740357      0.1367278      0.0443732
   2220.3918822      0.1350868      0.0441209
   2222.6216643      0.1334441      0.0438684
   2224.8395109      0.1318007      0.0436157
   2227.0692931      0.1301547      0.0433627
   2229.2871397      0.1285072      0.0431094
   2231.5169218      0.1248049      0.0431512
   2233.7586397      0.1208220      0.0432331
   2235.9884218      0.1168329      0.0433152
   2238.2182040      0.1128395      0.0433974
   2240.4599218      0.1088423      0.0434796
   2242.7016397      0.1070072      0.0434864
   2244.9433574      0.1107988      0.0432968
   2247.1850752      0.1145943      0.0431070
   2249.4387287      0.1183938      0.0429170
   2251.6923822      0.1221948      0.0427270
   2253.9341000      0.1260019      0.0425366
   2256.1996891      0.1298127      0.0423460
   2258.4533426      0.1336271      0.0421553
   2260.7069960      0.1374436      0.0419645
   2262.9724397      0.1412657      0.0417733
   2265.2380287      0.1450918      0.0415820
   2267.4916822      0.1489196      0.0413906
   2269.7692069      0.1527532      0.0411989
   2272.0347960      0.1565909      0.0410070
   2274.3121752      0.1604322      0.0408149
   2276.5777643      0.1642752      0.0406227
   2278.8552891      0.1681244      0.0404303
   2281.1328139      0.1719773      0.0402376
   2283.4221287      0.1758341      0.0400447
   2285.6996534      0.1796926      0.0398518
   2287.9891139      0.1835570      0.0396586
   2290.2784287      0.1874254      0.0394651
   2292.5678891      0.1912975      0.0392715
   2294.8572040      0.1951715      0.0390778
   2297.1586000      0.1990515      0.0388838
   2299.4480603      0.2029353      0.0386896
   2301.7493109      0.2068229      0.0384952
   2304.0507069      0.2107124      0.0383007
   2306.3519574      0.2146081      0.0381059
   2308.6652891      0.2185075      0.0379109
   2310.9665397      0.2224086      0.0377158
   2313.2798713      0.2263159      0.0375204
   2315.5930574      0.2302268      0.0373248
   2317.9183248      0.2339726      0.0371326
   2320.2315109      0.2258132      0.0371893
   2322.5448426      0.2176497      0.0372460
   2324.8699643      0.2094734      0.0373028
   2327.1950861      0.2012894      0.0373597
   2329.5203534      0.1931017      0.0374166
   2331.8574109      0.1854947      0.0375925
   2334.1826782      0.1784077      0.0378740
   2336.5197357      0.1713136      0.0381558
   2338.8567931      0.1642160      0.0384378
   2341.1939960      0.1571078      0.0387202
   2343.5429891      0.1522040      0.0389578
   2345.8800466      0.1777886      0.0385743
   2348.2290397      0.2033858      0.0381906
   2350.5781782      0.2290228      0.0378063
   2352.9271713      0.2546852      0.0374217
   2355.2761643      0.2803588      0.0370368
   2357.6370931      0.2809652      0.0367569
   2359.9980218      0.2662917      0.0365408
   2362.3590960      0.2516028      0.0363245
   2364.7200248      0.2368995      0.0361080
   2367.0809534      0.2221898      0.0358914
   2369.4418822      0.2117721      0.0357434
   2371.8147466      0.2193641      0.0358832
   2374.1876109      0.2269593      0.0360231
   2376.5604752      0.2345662      0.0361632
   2378.9452752      0.2421805      0.0363035
   2381.3181397      0.2498028      0.0364439
   2383.7029397      0.2572463      0.0363078
   2386.0877397      0.2646509      0.0360960
   2388.4725397      0.2720631      0.0358840
   2390.8573397      0.2794826      0.0356717
   2393.2540752      0.2869057      0.0354593
   2395.6388752      0.2865309      0.0352611
   2398.0356109      0.2743460      0.0350845
   2400.4323466      0.2621559      0.0349078
   2402.8410178      0.2499466      0.0347309
   2405.2377534      0.2377254      0.0345538
   2407.6464248      0.2258925      0.0343756
   2410.0550960      0.2281112      0.0341656
   2412.4636218      0.2303310      0.0339555
   2414.8722931      0.2325542      0.0337452
   2417.2929000      0.2347796      0.0335346
   2419.7135069      0.2370060      0.0333239
   2422.1341139      0.2321256      0.0336033
   2424.5545752      0.2238463      0.0341171
   2426.9751822      0.2155591      0.0346314
   2429.4077248      0.2072679      0.0351460
   2431.8281861      0.1989638      0.0356613
   2434.2607287      0.1994061      0.0358522
   2436.7052069      0.2166227      0.0354205
   2439.1376040      0.2338464      0.0349886
   2441.5701466      0.2510979      0.0345560
   2444.0144792      0.2683659      0.0341230
   2446.4589574      0.2852887      0.0336981
   2448.9034357      0.2881797      0.0336041
   2451.3598496      0.2910735      0.0335100
   2453.8043277      0.2939701      0.0334158
   2456.2604504      0.2968698      0.0333215
   2458.7168643      0.2997704      0.0332271
   2461.1732782      0.2968614      0.0333966
   2463.6416277      0.2918050      0.0336636
   2466.0977504      0.2867468      0.0339307
   2468.5661000      0.2816802      0.0341982
   2471.0344496      0.2766083      0.0344660
   2473.5025079      0.2726765      0.0343716
   2475.9827931      0.2701054      0.0338455
   2478.4630782      0.2675303      0.0333187
   2480.9314277      0.2649527      0.0327913
   2483.4233574      0.2623725      0.0322634
   2485.9036426      0.2604167      0.0318630
   2488.3839277      0.2609404      0.0319691
   2490.8758574      0.2614645      0.0320753
   2493.3680782      0.2619892      0.0321816
   2495.8600079      0.2625142      0.0322880
   2498.3522287      0.2630400      0.0323945
   2500.8563851      0.2681629      0.0323838
   2503.3602504      0.2734710      0.0323684
   2505.8524713      0.2787816      0.0323530
   2508.3682723      0.2841009      0.0323376
   2510.8724287      0.2894251      0.0323221
   2513.3885208      0.2943600      0.0324100
   2515.8923861      0.2991634      0.0325347
   2518.4084782      0.3039718      0.0326594
   2520.9362149      0.3087852      0.0327843
   2523.4523069      0.3136003      0.0329093
   2525.9800435      0.3065012      0.0329191
   2528.5080713      0.2891246      0.0328297
   2531.0358079      0.2717319      0.0327403
   2533.5638357      0.2543313      0.0326507
   2536.0915723      0.2369026      0.0325610
   2538.6315357      0.2260124      0.0324936
   2541.1712079      0.2271913      0.0324672
   2543.7111713      0.2283708      0.0324407
   2546.2508435      0.2295520      0.0324143
   2548.8027426      0.2307344      0.0323878
   2551.3543504      0.2310997      0.0323664
   2553.9062496      0.2278676      0.0323675
   2556.4578574      0.2246300      0.0323686
   2559.0097565      0.2213894      0.0323697
   2561.5733000      0.2181470      0.0323709
   2564.1368435      0.2148374      0.0323758
   2566.7006782      0.2096956      0.0324916
   2569.2642218      0.2045479      0.0326075
   2571.8399921      0.1993955      0.0327236
   2574.4035357      0.1942409      0.0328397
   2576.9790149      0.1890780      0.0329559
   2579.5547851      0.1807183      0.0328634
   2582.1422000      0.1720143      0.0327485
   2584.7176792      0.1632965      0.0326335
   2587.3053851      0.1545709      0.0325183
   2589.8928000      0.1458365      0.0324030
   2592.4802149      0.1486629      0.0324786
   2595.0798565      0.1545930      0.0326055
   2597.6672713      0.1605291      0.0327326
   2600.2666218      0.1664712      0.0328597
   2602.8659723      0.1724160      0.0329869
   2605.4775496      0.1715718      0.0333312
   2608.0769000      0.1677007      0.0337722
   2610.6881861      0.1638275      0.0342135
   2613.2994723      0.1599481      0.0346554
   2615.9110496      0.1560654      0.0350978
   2618.5223357      0.1610913      0.0350513
   2621.1455574      0.1717321      0.0346968
   2623.7687792      0.1823765      0.0343422
   2626.3922921      0.1930386      0.0339869
   2629.0155139      0.2037102      0.0336314
   2631.6506713      0.2118393      0.0334573
   2634.2738931      0.2179229      0.0334296
   2636.9090504      0.2240117      0.0334019
   2639.5442079      0.2301074      0.0333742
   2642.1915921      0.2362057      0.0333465
   2644.8267496      0.2357269      0.0334085
   2647.4738426      0.2288433      0.0335579
   2650.1209357      0.2219529      0.0337074
   2652.7680287      0.2150595      0.0338570
   2655.4270574      0.2081555      0.0340068
   2658.0860861      0.2046309      0.0341201
   2660.7451149      0.2047352      0.0341940
   2663.4041435      0.2048397      0.0342681
   2666.0631723      0.2049442      0.0343422
   2668.7344277      0.2050489      0.0344164
   2671.4053921      0.2090204      0.0344814
   2674.0763565      0.2172554      0.0345363
   2676.7473208      0.2255020      0.0345913
   2679.4182851      0.2337576      0.0346463
   2682.1011851      0.2420160      0.0347013
   2684.7840851      0.2486195      0.0347522
   2687.4669851      0.2534632      0.0347986
   2690.1618208      0.2583112      0.0348450
   2692.8447208      0.2631617      0.0348915
   2695.5395565      0.2680196      0.0349380
   2698.2343921      0.2698697      0.0350375
   2700.9292277      0.2688268      0.0351879
   2703.6357079      0.2677834      0.0353384
   2706.3424792      0.2667384      0.0354891
   2709.0492504      0.2656924      0.0356400
   2711.7560218      0.2623561      0.0357691
   2714.4627931      0.2571773      0.0358809
   2717.1815000      0.2519935      0.0359928
   2719.9002069      0.2468047      0.0361048
   2722.6189139      0.2416103      0.0362170
   2725.3376208      0.2477618      0.0361950
   2728.0679723      0.2609683      0.0360896
   2730.7986149      0.2741876      0.0359841
   2733.5292574      0.2874124      0.0358786
   2736.2599000      0.3006585      0.0357729
   2738.9905426      0.3013696      0.0357246
   2741.7331208      0.2966018      0.0357014
   2744.4754079      0.2918316      0.0356783
   2747.2179861      0.2870542      0.0356551
   2749.9725000      0.2822718      0.0356318
   2752.7150782      0.2823300      0.0357084
   2755.4695921      0.2836598      0.0358112
   2758.2238149      0.2849916      0.0359142
   2760.9902643      0.2863247      0.0360173
   2763.7447782      0.2876592      0.0361205
   2766.5112277      0.3012833      0.0363011
   2769.2773861      0.3162235      0.0364900
   2772.0438357      0.3311778      0.0366791
   2774.8222208      0.3461478      0.0368684
   2777.5883792      0.3605112      0.0370463
   2780.3667643      0.3589437      0.0369246
   2783.1570851      0.3573747      0.0368028
   2785.9351792      0.3558049      0.0366810
   2788.7255000      0.3542327      0.0365589
   2791.5038851      0.3523052      0.0364671
   2794.3058504      0.3487918      0.0365107
   2797.0961713      0.3452770      0.0365544
   2799.8984277      0.3417563      0.0365981
   2802.6884574      0.3382326      0.0366419
   2805.4907139      0.3372949      0.0366660
   2808.3046149      0.3412037      0.0366531
   2811.1068713      0.3451190      0.0366401
   2813.9207723      0.3490379      0.0366272
   2816.7349643      0.3529609      0.0366142
   2819.5491565      0.3493559      0.0365311
   2822.3749931      0.3391443      0.0363864
   2825.1891851      0.3289231      0.0362415
   2828.0150218      0.3186925      0.0360965
   2830.8530851      0.3084566      0.0359514
   2833.6789218      0.2941228      0.0362950
   2836.5169851      0.2782674      0.0368194
   2839.3428218      0.2624056      0.0373441
   2842.1928208      0.2465176      0.0378695
   2845.0305931      0.2306151      0.0383955
   2847.8805921      0.2503955      0.0379598
   2850.7303000      0.2721711      0.0374704
   2853.5800079      0.2939556      0.0369809
   2856.4300069      0.3157734      0.0364905
   2859.2916504      0.3356170      0.0361146
   2862.1416496      0.3464023      0.0362602
   2865.0032931      0.3572052      0.0364060
   2867.8768723      0.3680180      0.0365520
   2870.7388069      0.3788429      0.0366981
   2873.6123861      0.4005343      0.0368851
   2876.4862565      0.4367572      0.0371267
   2879.3598357      0.4730167      0.0373686
   2882.2453504      0.5093130      0.0376107
