# SOURCE  = 'Quimby et al. 2018' /                                                
# OBJECT  = 'PTF09cnd'           /                                                
# Z       =             0.258500 / wavelengths divided by (1 + z)                 
# NORM    =          1.83979E-16 / fluxes divided by norm                         
# CLIPPED =                    1 / galaxy emission lines removed                  
# SMOOTHED=                    1 / spectrum has been smoothed                     
# COLUMN01= 'Wavelength (Angstrom)' /                                             
# COLUMN02= 'Flux Density (erg/s/cm2/A)' /                                        
# COLUMN03= 'Flux Density Uncertainty (erg/s/cm2/A)' /                            
# END                                                                             
# 
# 
# 
# 
# 
# 
# 
# 
# 
# 
   3185.1501244      4.7619996      0.0193321
   3188.3341663      4.7620788      0.0188497
   3191.5308055      4.7685370      0.0183895
   3194.7148473      4.7730021      0.0179633
   3197.9114864      4.7871895      0.0175394
   3201.1081256      4.7531810      0.0171437
   3204.3044575      4.7303505      0.0168021
   3207.5136939      4.7176237      0.0164561
   3210.7229305      4.7072792      0.0161165
   3213.9321669      4.7054100      0.0156627
   3217.1540006      4.7213531      0.0153223
   3220.3629298      4.7136207      0.0150091
   3223.5847636      4.7160034      0.0147355
   3226.8065973      4.7336922      0.0144483
   3230.0410283      4.7331495      0.0142030
   3233.2625548      4.7404308      0.0139412
   3236.4969858      4.7399244      0.0136909
   3239.7314169      4.7252336      0.0133729
   3242.9784452      4.7127090      0.0131373
   3246.2251663      4.6884775      0.0128983
   3249.4595973      4.6404023      0.0126829
   3252.7192230      4.5820427      0.0124476
   3255.9659439      4.5094409      0.0122234
   3259.2255695      4.4454122      0.0120272
   3262.4851952      4.3657665      0.0117179
   3265.7445136      4.2968049      0.0115295
   3269.0167364      4.2267733      0.0113158
   3272.2760548      4.1469593      0.0111073
   3275.5482777      4.0645256      0.0109215
   3278.8330980      3.9855454      0.0107226
   3282.1050136      3.9067655      0.0105325
   3285.3898337      3.8382535      0.0102887
   3288.6743467      3.7749374      0.0101147
   3291.9717642      3.7148907      0.0099718
   3295.2562770      3.6503408      0.0098124
   3298.5536945      3.5926127      0.0096564
   3301.8508048      3.5316169      0.0095262
   3305.1482223      3.4749527      0.0093071
   3308.4579298      3.4235086      0.0091850
   3311.7679445      3.3983283      0.0090346
   3315.0776520      3.3661275      0.0088915
   3318.4002642      3.3470130      0.0087702
   3321.7099717      3.3146305      0.0088340
   3325.0325837      3.2803285      0.0089402
   3328.3548886      3.2610049      0.0090718
   3331.6900980      3.2286613      0.0083863
   3335.0250000      3.1893387      0.0080958
   3338.3599020      3.1484778      0.0079529
   3341.6951114      3.0969512      0.0078350
   3345.0426108      3.0556107      0.0078129
   3348.3778202      3.0137067      0.0078270
   3351.7253195      2.9693720      0.0078408
   3355.0854163      2.9248986      0.0078840
   3358.4332230      2.8837547      0.0078493
   3361.7933195      2.8532224      0.0078585
   3365.1534163      2.8211169      0.0078915
   3368.5264175      2.7951362      0.0078752
   3371.8865142      2.7819676      0.0078599
   3375.2592081      2.7863379      0.0077045
   3378.6444994      2.8091700      0.0076103
   3382.0175006      2.8343353      0.0074596
   3385.4027919      2.8728957      0.0073163
   3388.7880831      2.9085743      0.0071521
   3392.1733744      2.9578431      0.0069490
   3395.5715702      3.0146463      0.0068034
   3398.9694587      3.0769725      0.0066590
   3402.3673473      3.1374030      0.0065563
   3405.7652358      3.1999004      0.0064476
   3409.1757217      3.2737794      0.0064458
   3412.5739175      3.3521600      0.0064248
   3415.9970006      3.4363472      0.0064386
   3419.4074864      3.5147679      0.0065792
   3422.8305695      3.5824547      0.0064121
   3426.2536527      3.6500714      0.0063284
   3429.6767358      3.7194471      0.0062858
   3433.1124163      3.7821538      0.0063126
   3436.5354994      3.8508549      0.0063401
   3439.9711798      3.9177508      0.0063637
   3443.4194575      3.9815817      0.0064104
   3446.8554452      4.0331330      0.0064252
   3450.3037230      4.0831008      0.0064680
   3453.7520006      4.1332974      0.0064153
   3457.2128756      4.1839294      0.0064322
   3460.6737506      4.2371044      0.0063928
   3464.1346256      4.2798800      0.0063805
   3467.5955006      4.3198900      0.0062639
   3471.0563756      4.3620286      0.0062092
   3474.5298480      4.3932681      0.0061228
   3478.0033202      4.4117513      0.0060579
   3481.4890825      4.4282141      0.0059250
   3484.9625548      4.4471316      0.0058548
   3488.4486244      4.4529552      0.0057745
   3491.9472913      4.4448819      0.0056926
   3495.4333608      4.4257760      0.0056399
   3498.9320277      4.4007316      0.0056552
   3502.4306945      4.3706684      0.0056722
   3505.9293614      4.3507895      0.0054884
   3509.4406256      4.3186979      0.0054280
   3512.9515825      4.2919216      0.0053722
   3516.4628467      4.2632446      0.0053416
   3519.9741108      4.2326870      0.0052696
   3523.4979723      4.2016315      0.0052675
   3527.0218337      4.1750288      0.0052480
   3530.5456952      4.1531110      0.0052337
   3534.0818467      4.1322451      0.0052290
   3537.6183055      4.1097531      0.0052595
   3541.1547642      4.0948391      0.0052986
   3544.6912230      4.0820165      0.0052713
   3548.2399717      4.0772085      0.0053076
   3551.7890277      4.0573697      0.0053086
   3555.3380837      4.0497789      0.0052936
   3558.8868325      4.0397730      0.0052706
   3562.4484858      4.0327096      0.0052751
   3566.0101392      4.0280790      0.0052388
   3569.5840825      4.0242872      0.0052066
   3573.1457358      4.0239825      0.0052113
   3576.7199864      4.0124240      0.0051876
   3580.3065270      4.0000057      0.0051594
   3583.8807777      3.9858644      0.0051681
   3587.4676256      3.9692104      0.0051490
   3591.0541663      3.9543140      0.0051203
   3594.6410142      3.9334095      0.0051008
   3598.2401520      3.9097223      0.0051074
   3601.8395973      3.8913853      0.0050745
   3605.4390425      3.8680453      0.0050484
   3609.0507777      3.8478110      0.0050495
   3612.6502230      3.8331797      0.0050165
   3616.2619581      3.8155468      0.0049924
   3619.8865980      3.8009174      0.0049940
   3623.4983331      3.7777271      0.0049387
   3627.1229730      3.7563188      0.0049434
   3630.7599027      3.7317538      0.0049549
   3634.3845425      3.7118900      0.0049057
   3638.0214723      3.6987166      0.0049153
   3641.6584020      3.6889050      0.0049254
   3645.2956392      3.6775978      0.0048725
   3648.9451663      3.6692245      0.0048816
   3652.5950006      3.6656978      0.0048910
   3656.2445277      3.6629672      0.0048349
   3659.9066520      3.6571200      0.0048414
   3663.5690837      3.6537578      0.0047822
   3667.2312081      3.6470823      0.0047843
   3670.8933325      3.6411290      0.0047868
   3674.5683614      3.6314149      0.0047277
   3678.2430831      3.6158533      0.0047300
   3681.9178048      3.6011353      0.0047297
   3685.6054311      3.5793254      0.0046676
   3689.2927500      3.5585015      0.0046694
   3692.9800689      3.5342245      0.0046671
   3696.6676952      3.5033810      0.0046259
   3700.3676114      3.4675610      0.0045922
   3704.0675277      3.4346035      0.0045463
   3707.7674439      3.3986385      0.0045369
   3711.4799575      3.3725126      0.0045022
   3715.1927783      3.3479762      0.0044639
   3718.9052919      3.3198912      0.0044675
   3722.6304027      3.3011732      0.0044139
   3726.3429163      3.2926066      0.0044244
   3730.0680270      3.2880080      0.0044377
   3733.8060425      3.2880337      0.0044202
   3737.5437506      3.2918320      0.0044034
   3741.2814587      3.3008585      0.0043757
   3745.0191669      3.3075750      0.0043531
   3748.7694723      3.3231809      0.0043202
   3752.5071805      3.3336046      0.0042607
   3756.2700831      3.3443651      0.0042632
   3760.0203886      3.3522756      0.0042095
   3763.7832913      3.3474796      0.0042217
   3767.5461939      3.3436406      0.0041760
   3771.3090967      3.3348796      0.0041591
   3775.0845967      3.3326292      0.0041728
   3778.8600967      3.3231511      0.0041272
   3782.6355967      3.3107285      0.0041370
   3786.4236939      3.3091326      0.0040871
   3790.2117913      3.3012788      0.0040676
   3793.9998886      3.2977901      0.0040515
   3797.7879858      3.2954938      0.0040298
   3801.5886805      3.2866285      0.0040120
   3805.3893750      3.2792628      0.0039988
   3809.2026669      3.2742448      0.0039848
   3813.0033614      3.2762713      0.0039724
   3816.8166533      3.2793849      0.0039574
   3820.6425425      3.2776327      0.0039177
   3824.4555270      3.2818432      0.0039312
   3828.2814163      3.2825677      0.0039179
   3832.1073055      3.2882750      0.0038750
   3835.9457919      3.2843485      0.0038892
   3839.7842783      3.2907071      0.0038504
   3843.6224575      3.2978010      0.0038339
   3847.4609439      3.3110778      0.0038468
   3851.3120277      3.3228953      0.0038065
   3855.1631114      3.3323092      0.0037918
   3859.0141952      3.3520989      0.0037784
   3862.8775689      3.3676729      0.0037622
   3866.7412500      3.3871641      0.0037475
   3870.6049311      3.3890791      0.0037368
   3874.4809020      3.3896127      0.0037204
   3878.3571805      3.3893735      0.0037057
   3882.2334587      3.3888328      0.0036946
   3886.1094298      3.3829441      0.0036814
   3889.9983055      3.3742537      0.0036456
   3893.8871811      3.3630528      0.0037455
   3897.7883467      3.3582680      0.0037001
   3901.6772223      3.3371372      0.0036151
   3905.5786952      3.3220189      0.0036679
   3909.4924581      3.3010180      0.0038124
   3913.4065283      3.2825387      0.0036835
   3917.3076939      3.2664447      0.0037035
   3921.2343614      3.2549860      0.0037868
   3925.1481244      3.2400737      0.0038365
   3929.0747919      3.2298248      0.0039012
   3933.0011520      3.2172840      0.0039792
   3936.9404169      3.1892879      0.0040091
   3940.8793744      3.1587801      0.0039747
   3944.8186392      3.1253972      0.0038442
   3948.7575967      3.0975318      0.0037350
   3952.7094587      3.0628850      0.0036133
   3956.6610136      3.0295439      0.0034987
   3960.6254730      3.0003424      0.0033849
   3964.5770277      2.9681261      0.0033504
   3968.5411798      2.9305148      0.0034095
   3972.5182364      2.9022057      0.0032685
   3976.4823886      2.8735559      0.0032130
   3980.4594452      2.8511312      0.0032806
   3984.4487919      2.8353355      0.0032992
   3988.4255413      2.8236058      0.0032056
   3992.4151952      2.8219182      0.0032079
   3996.4171392      2.8227715      0.0032324
   4000.4064858      2.8285668      0.0032113
   4004.4084298      2.8296642      0.0032093
   4008.4106811      2.8234279      0.0032072
   4012.4252223      2.8225505      0.0032053
   4016.4397636      2.8202510      0.0031999
   4020.4543048      2.8269610      0.0031910
   4024.4691533      2.8278482      0.0031821
   4028.4962919      2.8258045      0.0031529
   4032.5234305      2.8251717      0.0031644
   4036.5631663      2.8206248      0.0031542
   4040.5903048      2.8112879      0.0031468
   4044.6303480      2.8029213      0.0031200
   4048.6826811      2.7945814      0.0031358
   4052.7224169      2.7859273      0.0031280
   4056.7873473      2.7794120      0.0030993
   4060.8396805      2.7716362      0.0030891
   4064.9046108      2.7622068      0.0030780
   4068.9695413      2.7595079      0.0030674
   4073.0344717      2.7555985      0.0030788
   4077.1119994      2.7526836      0.0030493
   4081.1895270      2.7457385      0.0030406
   4085.2670548      2.7481916      0.0030314
   4089.3571798      2.7536087      0.0030231
   4093.4473048      2.7587438      0.0029972
   4097.5374298      2.7685578      0.0030126
   4101.6275548      2.7765510      0.0030108
   4105.7302770      2.7902956      0.0030094
   4109.8455967      2.8026383      0.0029898
   4113.9483189      2.8192246      0.0029905
   4118.0636386      2.8324392      0.0029924
   4122.1789581      2.8438215      0.0030121
   4126.3068750      2.8550594      0.0030109
   4130.4347919      2.8635106      0.0029882
   4134.5627087      2.8750951      0.0030015
   4138.7032230      2.8788340      0.0029781
   4142.8308325      2.8862774      0.0029667
   4146.9839439      2.8916619      0.0029641
   4151.1244581      2.8908396      0.0029837
   4155.2775695      2.8919878      0.0029675
   4159.4306811      2.8894110      0.0029689
   4163.5960825      2.8816197      0.0029694
   4167.7617913      2.8767455      0.0029660
   4171.9275000      2.8641365      0.0029589
   4176.0932087      2.8492305      0.0029290
   4180.2712075      2.8389931      0.0029129
   4184.4495136      2.8284438      0.0028929
   4188.6404169      2.8175061      0.0028732
   4192.8313202      2.8105266      0.0028723
   4197.0219163      2.7979274      0.0028549
   4201.2128195      2.7909498      0.0028400
   4205.4163202      2.7856133      0.0028124
   4209.6195136      2.7826164      0.0028044
   4213.8356114      2.7829175      0.0028033
   4218.0514020      2.7837367      0.0027888
   4222.2675000      2.7884195      0.0027818
   4226.4835980      2.7928283      0.0027752
   4230.7119858      2.7943733      0.0027692
   4234.9406811      2.8005161      0.0027460
   4239.1816663      2.8032975      0.0027407
   4243.4229587      2.8038270      0.0027362
   4247.6639439      2.8079636      0.0027319
   4251.9178337      2.8023517      0.0027462
   4256.1714163      2.7996767      0.0027414
   4260.4253061      2.7993004      0.0027342
   4264.6788886      2.7933052      0.0027282
   4268.9453756      2.7906446      0.0027211
   4273.2115555      2.7859278      0.0027803
   4277.4903325      2.7749085      0.0027219
   4281.7694169      2.7659371      0.0026853
   4286.0481939      2.7571476      0.0026871
   4290.3398756      2.7502897      0.0027089
   4294.6186527      2.7380610      0.0027413
   4298.9226244      2.7276361      0.0027761
   4303.2143061      2.7144637      0.0028097
   4307.5182777      2.6987998      0.0028366
   4311.8348467      2.6789079      0.0028514
   4316.1391256      2.6565270      0.0028484
   4320.4556945      2.6361983      0.0028275
   4324.7722636      2.6095233      0.0027939
   4329.1014298      2.5845201      0.0027524
   4333.4309033      2.5614684      0.0027082
   4337.7726669      2.5446730      0.0026553
   4342.1018331      2.5277946      0.0026188
   4346.4435967      2.5149989      0.0025997
   4350.7979575      2.5038860      0.0026102
   4355.1400283      2.4917240      0.0026883
   4359.4943892      2.4930787      0.0026127
   4363.8613473      2.4928820      0.0025948
   4368.2283055      2.4989171      0.0025783
   4372.5952636      2.5066168      0.0025786
   4376.9622217      2.5156143      0.0025794
   4381.3417770      2.5260670      0.0025799
   4385.7213325      2.5328109      0.0025826
   4390.1137925      2.5394855      0.0025860
   4394.5059452      2.5427504      0.0025906
   4398.8980980      2.5410905      0.0025960
   4403.2902506      2.5416434      0.0025992
   4407.6950006      2.5344155      0.0026012
   4412.0997506      2.5284431      0.0026019
   4416.5170980      2.5222664      0.0026013
   4420.9344452      2.5143156      0.0025992
   4425.3517925      2.5026028      0.0025950
   4429.7814298      2.4951310      0.0025715
   4434.2113744      2.4851470      0.0025639
   4438.6413189      2.4732242      0.0025549
   4443.0838608      2.4609993      0.0025459
   4447.5264027      2.4396267      0.0025373
   4451.9815419      2.4194741      0.0025277
   4456.4240837      2.3962803      0.0025179
   4460.8792230      2.3707078      0.0025222
   4465.3466520      2.3384731      0.0025118
   4469.8143886      2.3034594      0.0024850
   4474.2821250      2.2683084      0.0024748
   4478.7498614      2.2333679      0.0024658
   4483.2301952      2.1983666      0.0024574
   4487.7102217      2.1644011      0.0024504
   4492.2031527      2.1345036      0.0024439
   4496.6960837      2.1072969      0.0024387
   4501.2013048      2.0852649      0.0024199
   4505.6942358      2.0682666      0.0024178
   4510.1997642      2.0577562      0.0024164
   4514.7175825      2.0557559      0.0024156
   4519.2231108      2.0516255      0.0024159
   4523.7412364      2.0492878      0.0024294
   4528.2716520      2.0472326      0.0024285
   4532.8023750      2.0497658      0.0024119
   4537.3330980      2.0504479      0.0024096
   4541.8761108      2.0490735      0.0024069
   4546.4068337      2.0475383      0.0024038
   4550.9624439      2.0449734      0.0024008
   4555.5057642      2.0438390      0.0023823
   4560.0613744      2.0441504      0.0023796
   4564.6298892      2.0455647      0.0023920
   4569.1854994      2.0459316      0.0023899
   4573.7540142      2.0462444      0.0023888
   4578.3348189      2.0502133      0.0023737
   4582.9159311      2.0560534      0.0023737
   4587.4967358      2.0652008      0.0023738
   4592.0904452      2.0760279      0.0023742
   4596.6712500      2.0898144      0.0023758
   4601.2772494      2.1020670      0.0023771
   4605.8709587      2.1160769      0.0023781
   4610.4769581      2.1274962      0.0023798
   4615.0955548      2.1410213      0.0023677
   4619.7018614      2.1542289      0.0023679
   4624.3330555      2.1613765      0.0023827
   4628.9516520      2.1690879      0.0023824
   4633.5831533      2.1735518      0.0023674
   4638.2143473      2.1754961      0.0023663
   4642.8581386      2.1773570      0.0023650
   4647.4893325      2.1773295      0.0023771
   4652.1460283      2.1746106      0.0023609
   4656.7898195      2.1690249      0.0023587
   4661.4588055      2.1640363      0.0023574
   4666.1151939      2.1603725      0.0023421
   4670.7841798      2.1573553      0.0023546
   4675.4534730      2.1509006      0.0023536
   4680.1224587      2.1443677      0.0023527
   4684.8040419      2.1396861      0.0023369
   4689.4982223      2.1338086      0.0023489
   4694.1798055      2.1291010      0.0023472
   4698.8739858      2.1220901      0.0023318
   4703.5807636      2.1138270      0.0023298
   4708.2749439      2.1038165      0.0023266
   4712.9943189      2.0930705      0.0023227
   4717.7010967      2.0824292      0.0023185
   4722.4204717      2.0680797      0.0023142
   4727.1398467      2.0509489      0.0023100
   4731.8718189      2.0373609      0.0023056
   4736.6037913      2.0232596      0.0023006
   4741.3357636      2.0068138      0.0022818
   4746.0803331      1.9887640      0.0022892
   4750.8249027      1.9718223      0.0022846
   4755.5820695      1.9534333      0.0022672
   4760.3266392      1.9386855      0.0022920
   4765.0964033      1.9192998      0.0022940
   4769.8535702      1.9042602      0.0022602
   4774.6230270      1.8893528      0.0022579
   4779.4053886      1.8733668      0.0022724
   4784.1877500      1.8607062      0.0022966
   4788.9701114      1.8500375      0.0023118
   4793.7524730      1.8413351      0.0023560
   4798.5471244      1.8347549      0.0023808
   4803.3546805      1.8374448      0.0023824
   4808.1496392      1.8380897      0.0024074
   4812.9571952      1.8428204      0.0023891
   4817.7770413      1.8491565      0.0023762
   4822.5971945      1.8645581      0.0023668
