# SOURCE  = 'Quimby et al. 2018' /                                                
# OBJECT  = 'PTF09cnd'           /                                                
# Z       =             0.258500 / wavelengths divided by (1 + z)                 
# NORM    =          7.76240E-16 / fluxes divided by norm                         
# CLIPPED =                    1 / galaxy emission lines removed                  
# SMOOTHED=                    1 / spectrum has been smoothed                     
# COLUMN01= 'Wavelength (Angstrom)' /                                             
# COLUMN02= 'Flux Density (erg/s/cm2/A)' /                                        
# COLUMN03= 'Flux Density Uncertainty (erg/s/cm2/A)' /                            
# END                                                                             
# 
# 
# 
# 
# 
# 
# 
# 
# 
# 
   3172.4394587      1.7370135      0.0177218
   3175.6109033      1.7615026      0.0171853
   3178.7949452      1.7926329      0.0166698
   3181.9660825      1.8099363      0.0162067
   3185.1501244      1.8276173      0.0157612
   3188.3341663      1.8570216      0.0152161
   3191.5308055      1.8890362      0.0148254
   3194.7148473      1.9258868      0.0144595
   3197.9114864      1.9576592      0.0141175
   3201.1081256      1.9808291      0.0138128
   3204.3044575      1.9948550      0.0135218
   3207.5136939      2.0120330      0.0132534
   3210.7229305      2.0298092      0.0132178
   3213.9321669      2.0425522      0.0133143
   3217.1540006      2.0818732      0.0127055
   3220.3629298      2.1055312      0.0121700
   3223.5847636      2.1154597      0.0119047
   3226.8065973      2.1369939      0.0116903
   3230.0410283      2.1532376      0.0115267
   3233.2625548      2.1607869      0.0113760
   3236.4969858      2.1643732      0.0112452
   3239.7314169      2.1630301      0.0111065
   3242.9784452      2.1583703      0.0109689
   3246.2251663      2.1495588      0.0107416
   3249.4595973      2.1294706      0.0105654
   3252.7192230      2.0988305      0.0103776
   3255.9659439      2.0577893      0.0102080
   3259.2255695      2.0092967      0.0100230
   3262.4851952      1.9627641      0.0098393
   3265.7445136      1.9093415      0.0096696
   3269.0167364      1.8563215      0.0093561
   3272.2760548      1.8048631      0.0091401
   3275.5482777      1.7418665      0.0089483
   3278.8330980      1.6806947      0.0087358
   3282.1050136      1.6239223      0.0085434
   3285.3898337      1.5708402      0.0083420
   3288.6743467      1.5147702      0.0081500
   3291.9717642      1.4650561      0.0079146
   3295.2562770      1.4151334      0.0077359
   3298.5536945      1.3666946      0.0075818
   3301.8508048      1.3178008      0.0074200
   3305.1482223      1.2743891      0.0072661
   3308.4579298      1.2256083      0.0071459
   3311.7679445      1.1938258      0.0069632
   3315.0776520      1.1636721      0.0068954
   3318.4002642      1.1316563      0.0067150
   3321.7099717      1.0989753      0.0065659
   3325.0325837      1.0677398      0.0064328
   3328.3548886      1.0432639      0.0062897
   3331.6900980      1.0108114      0.0061136
   3335.0250000      0.9815437      0.0059929
   3338.3599020      0.9580696      0.0058843
   3341.6951114      0.9319408      0.0058039
   3345.0426108      0.9128283      0.0057208
   3348.3778202      0.8925069      0.0056225
   3351.7253195      0.8789477      0.0055582
   3355.0854163      0.8686827      0.0055197
   3358.4332230      0.8609304      0.0054702
   3361.7933195      0.8578946      0.0054260
   3365.1534163      0.8570083      0.0054040
   3368.5264175      0.8656209      0.0053297
   3371.8865142      0.8819382      0.0053019
   3375.2592081      0.9073549      0.0052512
   3378.6444994      0.9361876      0.0052177
   3382.0175006      0.9714043      0.0051608
   3385.4027919      1.0128369      0.0050839
   3388.7880831      1.0547196      0.0050250
   3392.1733744      1.0988721      0.0049654
   3395.5715702      1.1468116      0.0049225
   3398.9694587      1.2005230      0.0048312
   3402.3673473      1.2510974      0.0048631
   3405.7652358      1.3039635      0.0049167
   3409.1757217      1.3683296      0.0048011
   3412.5739175      1.4231162      0.0047258
   3415.9970006      1.4819875      0.0046704
   3419.4074864      1.5371628      0.0046619
   3422.8305695      1.5918632      0.0046868
   3426.2536527      1.6454210      0.0047017
   3429.6767358      1.7002648      0.0047263
   3433.1124163      1.7533605      0.0047569
   3436.5354994      1.8057283      0.0048075
   3439.9711798      1.8570052      0.0048298
   3443.4194575      1.9092580      0.0048698
   3446.8554452      1.9564673      0.0048356
   3450.3037230      2.0054083      0.0048875
   3453.7520006      2.0483496      0.0049958
   3457.2128756      2.0945778      0.0049140
   3460.6737506      2.1461587      0.0047859
   3464.1346256      2.1942265      0.0047663
   3467.5955006      2.2367489      0.0048338
   3471.0563756      2.2797444      0.0048355
   3474.5298480      2.3174064      0.0046981
   3478.0033202      2.3497188      0.0046997
   3481.4890825      2.3777018      0.0047027
   3484.9625548      2.4031019      0.0047360
   3488.4486244      2.4198561      0.0047527
   3491.9472913      2.4387794      0.0048298
   3495.4333608      2.4465244      0.0049169
   3498.9320277      2.4487450      0.0049155
   3502.4306945      2.4430056      0.0048379
   3505.9293614      2.4358020      0.0048088
   3509.4406256      2.4265549      0.0047357
   3512.9515825      2.4122758      0.0045640
   3516.4628467      2.3947115      0.0044664
   3519.9741108      2.3794465      0.0043871
   3523.4979723      2.3650990      0.0043268
   3527.0218337      2.3508098      0.0042265
   3530.5456952      2.3339446      0.0041852
   3534.0818467      2.3209000      0.0041415
   3537.6183055      2.3042746      0.0041480
   3541.1547642      2.2932458      0.0041898
   3544.6912230      2.2799909      0.0041528
   3548.2399717      2.2754052      0.0040911
   3551.7890277      2.2735445      0.0041266
   3555.3380837      2.2732036      0.0042452
   3558.8868325      2.2709899      0.0041394
   3562.4484858      2.2773232      0.0040622
   3566.0101392      2.2803361      0.0040367
   3569.5840825      2.2877140      0.0040210
   3573.1457358      2.2921019      0.0039869
   3576.7199864      2.2988553      0.0039592
   3580.3065270      2.3044107      0.0039535
   3583.8807777      2.3075967      0.0039309
   3587.4676256      2.3121979      0.0039007
   3591.0541663      2.3150489      0.0038994
   3594.6410142      2.3173640      0.0038823
   3598.2401520      2.3185501      0.0038624
   3601.8395973      2.3193705      0.0038462
   3605.4390425      2.3221428      0.0038534
   3609.0507777      2.3196356      0.0038414
   3612.6502230      2.3188472      0.0038355
   3616.2619581      2.3149610      0.0038565
   3619.8865980      2.3132463      0.0038289
   3623.4983331      2.3077605      0.0038488
   3627.1229730      2.3031669      0.0038669
   3630.7599027      2.3059258      0.0038330
   3634.3845425      2.3098686      0.0038491
   3638.0214723      2.3105645      0.0038617
   3641.6584020      2.3191197      0.0038190
   3645.2956392      2.3259175      0.0038232
   3648.9451663      2.3272152      0.0038296
   3652.5950006      2.3378389      0.0037850
   3656.2445277      2.3481989      0.0037911
   3659.9066520      2.3570421      0.0037751
   3663.5690837      2.3656776      0.0037508
   3667.2312081      2.3743327      0.0037521
   3670.8933325      2.3866262      0.0037054
   3674.5683614      2.3975987      0.0037103
   3678.2430831      2.4093313      0.0037157
   3681.9178048      2.4180493      0.0036732
   3685.6054311      2.4257240      0.0036829
   3689.2927500      2.4284866      0.0036985
   3692.9800689      2.4357467      0.0036680
   3696.6676952      2.4407623      0.0036860
   3700.3676114      2.4429696      0.0036763
   3704.0675277      2.4489362      0.0036876
   3707.7674439      2.4544370      0.0036707
   3711.4799575      2.4551511      0.0037354
   3715.1927783      2.4498005      0.0037518
   3718.9052919      2.4437406      0.0036537
   3722.6304027      2.4281747      0.0036175
   3726.3429163      2.4159009      0.0036579
   3730.0680270      2.3993299      0.0036662
   3733.8060425      2.3764546      0.0037396
   3737.5437506      2.3517087      0.0037856
   3741.2814587      2.3278644      0.0038102
   3745.0191669      2.2992678      0.0038100
   3748.7694723      2.2733159      0.0037965
   3752.5071805      2.2467661      0.0037164
   3756.2700831      2.2255223      0.0036182
   3760.0203886      2.2064579      0.0035582
   3763.7832913      2.1946285      0.0034586
   3767.5461939      2.1844068      0.0034018
   3771.3090967      2.1777444      0.0033216
   3775.0845967      2.1732821      0.0032762
   3778.8600967      2.1724396      0.0032864
   3782.6355967      2.1769807      0.0032905
   3786.4236939      2.1798341      0.0032935
   3790.2117913      2.1794481      0.0032136
   3793.9998886      2.1848483      0.0032043
   3797.7879858      2.1864984      0.0031943
   3801.5886805      2.1941168      0.0031807
   3805.3893750      2.1997740      0.0031723
   3809.2026669      2.2082696      0.0031686
   3813.0033614      2.2151141      0.0031652
   3816.8166533      2.2252066      0.0031394
   3820.6425425      2.2299366      0.0031585
   3824.4555270      2.2430050      0.0031316
   3828.2814163      2.2540591      0.0031487
   3832.1073055      2.2612944      0.0031390
   3835.9457919      2.2669909      0.0031031
   3839.7842783      2.2730913      0.0031099
   3843.6224575      2.2749839      0.0030705
   3847.4609439      2.2745559      0.0030466
   3851.3120277      2.2777469      0.0030447
   3855.1631114      2.2828128      0.0030002
   3859.0141952      2.2846434      0.0029727
   3862.8775689      2.2842951      0.0029547
   3866.7412500      2.2872841      0.0029333
   3870.6049311      2.2893915      0.0029135
   3874.4809020      2.2934394      0.0028980
   3878.3571805      2.2964227      0.0028794
   3882.2334587      2.3001871      0.0028659
   3886.1094298      2.3008711      0.0028584
   3889.9983055      2.3062987      0.0028507
   3893.8871811      2.3079455      0.0029085
   3897.7883467      2.3152478      0.0028626
   3901.6772223      2.3137424      0.0028457
   3905.5786952      2.3093402      0.0028281
   3909.4924581      2.3022525      0.0028485
   3913.4065283      2.2978833      0.0028991
   3917.3076939      2.2871432      0.0029079
   3921.2343614      2.2783384      0.0029324
   3925.1481244      2.2730653      0.0029453
   3929.0747919      2.2716510      0.0029516
   3933.0011520      2.2690396      0.0029397
   3936.9404169      2.2611823      0.0029177
   3940.8793744      2.2612391      0.0028843
   3944.8186392      2.2568889      0.0028387
   3948.7575967      2.2522163      0.0027847
   3952.7094587      2.2531116      0.0027154
   3956.6610136      2.2546012      0.0026914
   3960.6254730      2.2547314      0.0026651
   3964.5770277      2.2564507      0.0026462
   3968.5411798      2.2541032      0.0027107
   3972.5182364      2.2508531      0.0026989
   3976.4823886      2.2453446      0.0026670
   3980.4594452      2.2397549      0.0026570
   3984.4487919      2.2349806      0.0026668
   3988.4255413      2.2298748      0.0026948
   3992.4151952      2.2236655      0.0026859
   3996.4171392      2.2247136      0.0026939
   4000.4064858      2.2268240      0.0026993
   4004.4084298      2.2304277      0.0027010
   4008.4106811      2.2338686      0.0027016
   4012.4252223      2.2334862      0.0027039
   4016.4397636      2.2351830      0.0027021
   4020.4543048      2.2334030      0.0026814
   4024.4691533      2.2355330      0.0026951
   4028.4962919      2.2390485      0.0026871
   4032.5234305      2.2370706      0.0026757
   4036.5631663      2.2302909      0.0026481
   4040.5903048      2.2244530      0.0026570
   4044.6303480      2.2127907      0.0026482
   4048.6826811      2.2058122      0.0026395
   4052.7224169      2.1987350      0.0026134
   4056.7873473      2.1908171      0.0026037
   4060.8396805      2.1842744      0.0025937
   4064.9046108      2.1756289      0.0026020
   4068.9695413      2.1728330      0.0025762
   4073.0344717      2.1696787      0.0025662
   4077.1119994      2.1679418      0.0025556
   4081.1895270      2.1678107      0.0025442
   4085.2670548      2.1681397      0.0025330
   4089.3571798      2.1671612      0.0025190
   4093.4473048      2.1656563      0.0025048
   4097.5374298      2.1646719      0.0024939
   4101.6275548      2.1605680      0.0024704
   4105.7302770      2.1599805      0.0024627
   4109.8455967      2.1555328      0.0024576
   4113.9483189      2.1527448      0.0024709
   4118.0636386      2.1509461      0.0024704
   4122.1789581      2.1495366      0.0025049
   4126.3068750      2.1496196      0.0024922
   4130.4347919      2.1495128      0.0024520
   4134.5627087      2.1543281      0.0024525
   4138.7032230      2.1546426      0.0024764
   4142.8308325      2.1551864      0.0025060
   4146.9839439      2.1594098      0.0025428
   4151.1244581      2.1595385      0.0025808
   4155.2775695      2.1647160      0.0026114
   4159.4306811      2.1691272      0.0026300
   4163.5960825      2.1740117      0.0027323
   4167.7617913      2.1730576      0.0026296
   4171.9275000      2.1733613      0.0025804
   4176.0932087      2.1772206      0.0025558
   4180.2712075      2.1787527      0.0025562
   4184.4495136      2.1833184      0.0025420
   4188.6404169      2.1836450      0.0025332
   4192.8313202      2.1868267      0.0025170
   4197.0219163      2.1917357      0.0025306
   4201.2128195      2.1977735      0.0026068
   4205.4163202      2.2007954      0.0025560
   4209.6195136      2.2034087      0.0024931
   4213.8356114      2.2070746      0.0024591
   4218.0514020      2.2059774      0.0024202
   4222.2675000      2.2077553      0.0023786
   4226.4835980      2.2054379      0.0023766
   4230.7119858      2.1992238      0.0023322
   4234.9406811      2.1926916      0.0022831
   4239.1816663      2.1843574      0.0023053
   4243.4229587      2.1750627      0.0023890
   4247.6639439      2.1634924      0.0023526
   4251.9178337      2.1530993      0.0023655
   4256.1714163      2.1456215      0.0023937
   4260.4253061      2.1370878      0.0024148
   4264.6788886      2.1290281      0.0024514
   4268.9453756      2.1168768      0.0024938
   4273.2115555      2.1101992      0.0026137
   4277.4903325      2.1056645      0.0024144
   4281.7694169      2.0973320      0.0023709
   4286.0481939      2.0909047      0.0023790
   4290.3398756      2.0870345      0.0024055
   4294.6186527      2.0834496      0.0024399
   4298.9226244      2.0829711      0.0024804
   4303.2143061      2.0829036      0.0025350
   4307.5182777      2.0766323      0.0026690
   4311.8348467      2.0750260      0.0026140
   4316.1391256      2.0741832      0.0025314
   4320.4556945      2.0734379      0.0024594
   4324.7722636      2.0701506      0.0023965
   4329.1014298      2.0638628      0.0023300
   4333.4309033      2.0613966      0.0022679
   4337.7726669      2.0589681      0.0022177
   4342.1018331      2.0540793      0.0021932
   4346.4435967      2.0462306      0.0022387
   4350.7979575      2.0397978      0.0022980
   4355.1400283      2.0345161      0.0022646
   4359.4943892      2.0263228      0.0022017
   4363.8613473      2.0177443      0.0022019
   4368.2283055      2.0117137      0.0022234
   4372.5952636      2.0054104      0.0021765
   4376.9622217      1.9986047      0.0021696
   4381.3417770      1.9960065      0.0021829
   4385.7213325      1.9892122      0.0022099
   4390.1137925      1.9840719      0.0022433
   4394.5059452      1.9836566      0.0022785
   4398.8980980      1.9843543      0.0023127
   4403.2902506      1.9847282      0.0023408
   4407.6950006      1.9863104      0.0023578
   4412.0997506      1.9854406      0.0023580
   4416.5170980      1.9860286      0.0023469
   4420.9344452      1.9885472      0.0023248
   4425.3517925      1.9920270      0.0022946
   4429.7814298      1.9968247      0.0022494
   4434.2113744      2.0021214      0.0022178
   4438.6413189      2.0078785      0.0021930
   4443.0838608      2.0139239      0.0021831
   4447.5264027      2.0203862      0.0022006
   4451.9815419      2.0289972      0.0022354
   4456.4240837      2.0350747      0.0021744
   4460.8792230      2.0421534      0.0021850
   4465.3466520      2.0498421      0.0021692
   4469.8143886      2.0557866      0.0021671
   4474.2821250      2.0623386      0.0021658
   4478.7498614      2.0656712      0.0021655
   4483.2301952      2.0667591      0.0021655
   4487.7102217      2.0669482      0.0021653
   4492.2031527      2.0657501      0.0021643
   4496.6960837      2.0601201      0.0021506
   4501.2013048      2.0538406      0.0021499
   4505.6942358      2.0474298      0.0021492
   4510.1997642      2.0388083      0.0021481
   4514.7175825      2.0285985      0.0021472
   4519.2231108      2.0147755      0.0021597
   4523.7412364      2.0011723      0.0021454
   4528.2716520      1.9895470      0.0021433
   4532.8023750      1.9745491      0.0021408
   4537.3330980      1.9646343      0.0021372
   4541.8761108      1.9510552      0.0021330
   4546.4068337      1.9379901      0.0021276
   4550.9624439      1.9258121      0.0021654
   4555.5057642      1.9142184      0.0021250
   4560.0613744      1.9039913      0.0021065
   4564.6298892      1.8930904      0.0021074
   4569.1854994      1.8828707      0.0021096
   4573.7540142      1.8739525      0.0021323
   4578.3348189      1.8639942      0.0021574
   4582.9159311      1.8574618      0.0021812
   4587.4967358      1.8508584      0.0022012
   4592.0904452      1.8449976      0.0022117
   4596.6712500      1.8383116      0.0022154
   4601.2772494      1.8318111      0.0022029
   4605.8709587      1.8273520      0.0021828
   4610.4769581      1.8218950      0.0021410
   4615.0955548      1.8190283      0.0021131
   4619.7018614      1.8187000      0.0021020
   4624.3330555      1.8182908      0.0020732
   4628.9516520      1.8147998      0.0020501
   4633.5831533      1.8128473      0.0020569
   4638.2143473      1.8116831      0.0021004
   4642.8581386      1.8131229      0.0020840
   4647.4893325      1.8155613      0.0020649
   4652.1460283      1.8147711      0.0020704
   4656.7898195      1.8170446      0.0020744
   4661.4588055      1.8190839      0.0020660
   4666.1151939      1.8253146      0.0020808
   4670.7841798      1.8339075      0.0020799
   4675.4534730      1.8409899      0.0020663
   4680.1224587      1.8490039      0.0020619
   4684.8040419      1.8531502      0.0020687
   4689.4982223      1.8562011      0.0020641
   4694.1798055      1.8616928      0.0020497
   4698.8739858      1.8640964      0.0020494
   4703.5807636      1.8698573      0.0020651
   4708.2749439      1.8709608      0.0020970
   4712.9943189      1.8683290      0.0020838
   4717.7010967      1.8638422      0.0020561
   4722.4204717      1.8605812      0.0020544
   4727.1398467      1.8529454      0.0020724
   4731.8718189      1.8439646      0.0020971
   4736.6037913      1.8322299      0.0021145
   4741.3357636      1.8208348      0.0021495
   4746.0803331      1.8119591      0.0021575
   4750.8249027      1.7988201      0.0021689
   4755.5820695      1.7884796      0.0021830
   4760.3266392      1.7777331      0.0021563
   4765.0964033      1.7698160      0.0021364
   4769.8535702      1.7583858      0.0021125
   4774.6230270      1.7465876      0.0020836
   4779.4053886      1.7381237      0.0020567
   4784.1877500      1.7324412      0.0020248
   4788.9701114      1.7260675      0.0020221
   4793.7524730      1.7181643      0.0020247
   4798.5471244      1.7094759      0.0020448
   4803.3546805      1.7026633      0.0020496
